s1
1395
1195
795
595
795
1195
1395
1195
800
597
795
1194
1392
1193
792
589
787.999999999999
1187
1390
1193
789
588
785.999999999999
1188
1393
1197
793
586
782.999999999999
1177
1379
1175
774.000000000001
572
768.999999999998
1169
1369
1171
773.000000000001
571
769
1166
1366
1166
766.000000000001
567
765
1163
1367
1169
769.000000000002
568
767
1163
1366
1164
768.000000000002
566
764
1161
1360
1157
752.000000000002
547
746.999999999997
1142.99999999999
1333
1127
727.000000000004
539
758
1180
1410
1248
899.000000000002
748
979.999999999997
1392
1577
1328
857.999999999999
591
750.999999999995
1137
1339
1150
758.000000000002
559
756.999999999997
1155
1358
1159.00000000001
761
562
760
1157
1356
1159
755.000000000002
557
757.999999999997
1156.99999999999
1358
1159
758
558
754.999999999994
1153
1357
1159
763.000000000002
560
759.999999999997
1157.99999999999
1356
1157
756
555
752.999999999994
1153
1356
1158
758.000000000003
558
755.999999999997
1153.99999999999
1359
1159.00000000001
758.000000000005
558
756.999999999989
1157
1356
1158
756.000000000003
554
752.999999999992
1154
1355
1158
760
557
758.000000000004
1155
1358
1157
757.000000000008
555
754.999999999996
1153
1356
1156.00000000001
757.000000000005
558
753.999999999999
1154
1355
1157.00000000001
757.000000000003
557
754.000000000001
1152.99999999999
1353
1155
755.00000000001
557
753.999999999994
1152
1352
1152.00000000001
750.999999999998
552
749.999999999996
1147
1350
1152.00000000001
753.000000000006
552
748.999999999998
1148.99999999999
1351
1151.00000000001
752.000000000013
552
751.000000000001
1150
1353
1158
759.000000000001
559
756.999999999993
1156
1361
1164.00000000001
764.000000000008
566
764.999999999996
1166
1367
1169.00000000001
773.000000000006
574
773.999999999988
1170.99999999999
1373
1175.00000000002
777.999999999994
575
775
1172.99999999999
1373
1176
774.000000000011
573
774.999999999993
1172.99999999998
1374
1174.00000000001
770.999999999999
572
771.999999999995
1171
1370
1171.00000000001
772.000000000006
569
767.999999999988
1165.99999999999
1369
1170
772.000000000004
568
768
1166.99999999999
1369
1169
771.000000000012
570
766.999999999992
1165.99999999998
1368
1169
766.999999999999
568
763.999999999995
1164
1363
1165.00000000002
764.000000000007
562
761.999999999978
1163.00000000001
1365
1167.00000000001
767.000000000014
566
764.99999999999
1161.99999999998
1366
1165.00000000001
764.000000000022
563
762.000000000002
1158.99999999999
1362
1164
766.00000000001
562
758.999999999995
1157.99999999999
1361
1164.00000000001
763.000000000017
562
760.000000000007
1158
1359
1161
762.000000000005
563
762.999999999999
1161.99999999999
1364
1163
765.999999999992
564
763.999999999992
1163
1363
1166.00000000001
768
565
762.999999999984
1161
1363
1165
766.000000000008
568
769.999999999997
1168.99999999999
1369
1170.00000000001
774.000000000015
574
772.999999999989
1178.99999999998
1380
1182.99999999999
784.000000000003
583
781.000000000001
1177.99999999999
1380
1179
779.00000000001
579
777.999999999994
1176.99999999999
1376
1177.00000000001
779.999999999998
582
782.999999999986
1175
1367
1167.00000000002
764.000000000005
562
757.999999999979
1157.99999999999
1359
1161.00000000001
760.000000000013
561
758.999999999991
1155.99999999998
1355
1156.00000000001
756.00000000002
554
755.000000000003
1153
1358
1157
758.000000000008
560
754.999999999996
1152.99999999999
1356
1158.00000000001
759.000000000016
558
753.999999999988
1151
1352
1148.00000000002
739.000000000003
535
728.999999999981
1121.99999999999
1317
1123.00000000002
741.000000000011
564
791.999999999974
1220.99999999999
1471
1322.00000000003
967.999999999999
799
1012.00000000001
1405
1575
1322
857.000000000006
602
769.999999999998
1145.99999999999
1334
1129.00000000001
733.000000000014
539
745.99999999999
1145.99999999998
1347
1146.00000000001
748.000000000021
548
747.999999999983
1144.99999999998
1347
1147
747.000000000009
549
744.999999999995
1141.99999999999
1342
1144.00000000001
745.000000000016
546
742.999999999988
1144.99999999998
1347
1149.00000000002
746.000000000024
546
742.99999999998
1141.99999999997
1342
1146.00000000002
746.000000000031
545
743.000000000012
1141
1344
1141.99999999999
742.999999999999
542
740.999999999985
1142
1344
1144.00000000002
745.000000000007
546
742.999999999978
1141.99999999999
1346
1146.00000000003
747.000000000014
547
741.99999999997
1142.99999999998
1345
1146.00000000003
749.000000000022
546
745.000000000002
1141.99999999999
1344
1146
746.00000000001
547
742.999999999995
1140.99999999999
1341
1144.00000000001
745.000000000017
543
740.999999999987
1139.99999999998
1340
1142.00000000002
741.000000000024
539
739.99999999998
1136.99999999997
1338
1138
739.999999999992
538
733.999999999992
1133
1334
1137.00000000001
735
534
732.999999999984
1130
1332
1133.00000000002
734.000000000008
533
729.999999999977
1128.99999999999
1332
1134.00000000003
735.000000000015
536
736.999999999969
1136
1342
1144.99999999999
750.000000000003
551
752.000000000001
1150.99999999999
1356
1159
761.00000000001
560
757.999999999994
1157.99999999997
1360
1162.00000000001
764.000000000037
564
759.999999999986
1159.99999999996
1361
1163.00000000002
763.000000000045
565
760.000000000018
1157.99999999999
1363
1161.99999999999
764.000000000013
564
759.999999999971
1158.99999999998
1362
1163.00000000003
761.00000000002
563
760.999999999964
1160.99999999998
1362
1165.00000000004
766.000000000028
563
761.999999999957
1159.99999999997
1361
1164.00000000005
760.999999999996
561
760.999999999988
1158
1361
1160.00000000002
761.000000000003
559
756.999999999981
1155.99999999999
1357
1157.00000000002
758.000000000011
559
754.999999999974
1153.99999999999
1355
1157.00000000003
758.000000000018
558
754.999999999966
1154.99999999998
1355
1160
757.999999999986
557
755.999999999998
1153.00000000001
1357
1158.00000000001
757.999999999994
557
752.99999999999
1152
1353
1154.00000000001
756.000000000001
555
754.999999999983
1154.99999999999
1355
1158.00000000002
758.000000000009
557
755.000000000015
1153.99999999999
1354
1155.99999999999
758.000000000016
555
755.000000000008
1152.99999999998
1354
1156
758.000000000024
556
756
1155.99999999997
1358
1157
758.000000000031
557
754.999999999992
1154.99999999996
1356
1158.00000000001
760.999999999999
565
763.999999999985
1165
1367
1169.00000000002
771.000000000007
571
770.999999999978
1172.99999999999
1374
1176.00000000003
779.000000000014
581
775.99999999997
1174.99999999998
1376
1175.00000000003
777.000000000022
575
773.999999999963
1168.99999999997
1369
1171
773.99999999999
579
779.999999999995
1178.00000000001
1371
1170.00000000001
767.999999999997
567
762.999999999987
1160
1356
1158.00000000002
757.000000000005
557
752.99999999998
1149.99999999999
1352
1155.00000000002
754.000000000012
553
750.999999999972
1148.99999999998
1348
1149.99999999999
751.00000000002
551
748.000000000004
1146.99999999998
1348
1149
753.000000000027
550
745.999999999997
1142.99999999997
1342
1137.00000000001
731.000000000035
526
719.999999999989
1112.99999999996
1310
1119.00000000001
743.000000000042
574
805.999999999982
1247.99999999999
1506
1362.00000000002
1001.00000000001
816
993.999999999974
1327.99999999999
1434
1160.00000000003
724.000000000018
523
734.999999999967
1140.99999999998
1345
1146.00000000004
745.000000000025
546
744.999999999959
1142.99999999997
1345
1143.00000000001
745.999999999993
545
744.999999999991
1142
1343
1144.00000000001
744.000000000001
541
742.999999999984
1140
1341
1143.00000000002
743.000000000008
540
739.999999999976
1136.99999999999
1340
1142.00000000003
742.000000000016
543
738.999999999969
1137.99999999998
1340
1141
742.000000000023
542
739.000000000001
1139.99999999997
1344
1145
744.000000000031
544
744.999999999993
1140.99999999997
1343
1146.00000000001
744.000000000038
544
740.999999999986
1138.99999999996
1339
1141.00000000002
741.000000000045
542
738.999999999978
1138.99999999995
1340
1141.00000000003
744.000000000053
544
741.999999999971
1138.99999999994
1342
1143.00000000003
745.00000000006
544
744.000000000003
1143.00000000001
1347
1144
745.999999999989
546
743.999999999995
1141.00000000001
1343
1143.00000000001
741.999999999997
541
739.999999999988
1140
1339
1141.00000000002
741.000000000004
542
736.99999999998
1137.99999999999
1337
1140.00000000002
740.000000000012
540
739.999999999973
1138.99999999998
1339
1141.00000000003
745.000000000019
545
745.999999999965
1148.99999999998
1352
1156.00000000004
757.000000000026
558
756.999999999958
1156.99999999997
1359
1160.00000000005
763.000000000034
563
760.99999999995
1161.99999999996
1363
1164.00000000001
764.000000000002
564
761.999999999982
1161.99999999999
1362
1161.00000000002
764.00000000001
563
760.999999999975
1159.99999999999
1359
1162.00000000003
763.000000000017
563
759.999999999967
1158.99999999998
1363
1162.00000000004
765.000000000024
562
758.99999999996
1157.99999999997
1360
1160.00000000004
760.000000000032
559
753.999999999952
1153.99999999996
1356
1157.00000000005
758.000000000039
557
755.999999999945
1151.99999999996
1354
1154.00000000006
753.000000000047
552
752.999999999937
1150.99999999995
1353
1154.00000000007
755.999999999976
553
754.000000000009
1151.00000000002
1351
1153.99999999999
752.999999999983
554
750.000000000001
1148.00000000001
1350
1152
751.00000000003
552
750.999999999994
1147.99999999997
1350
1151.00000000001
754.000000000037
554
753.999999999986
1149.99999999996
1351
1155.00000000002
755.000000000045
556
752.999999999979
1150.99999999995
1352
1153.00000000002
753.000000000052
553
748.999999999971
1146.99999999994
1353
1152.00000000003
753.00000000006
552
751.999999999964
1149.99999999994
1352
1155.00000000004
753.000000000067
555
754.999999999957
1155.00000000001
1356
1162.00000000001
762.999999999996
563
761.999999999988
1163
1366
1167.00000000002
769.000000000003
568
767.999999999981
1168.99999999999
1371
1173.00000000002
775.000000000011
572
770.999999999974
1168.99999999999
1368
1171.00000000003
770.000000000018
569
767.999999999966
1168.99999999998
1368
1169.00000000004
771.000000000026
573
775.999999999959
1171.99999999997
1368
1162.00000000005
762.000000000033
555
751.999999999951
1147.99999999996
1347
1148.00000000005
750.000000000041
549
746.999999999944
1145.99999999996
1345
1146.99999999998
747.000000000009
547
745.000000000015
1142.99999999999
1344
1148.99999999999
749.000000000016
546
745.000000000008
1140.99999999998
1343
1144
746.000000000024
543
739
1131.99999999997
1329
1123
722.000000000031
519
715.999999999992
1103.99999999996
1295
1098.00000000001
709.000000000039
525
746.999999999985
1169.99999999996
1401
1242.00000000002
898.000000000046
751
985.999999999978
1395.99999999995
1578
1319.00000000003
837.000000000054
563
723.99999999997
1119.99999999994
1329
1142.00000000003
746.000000000061
546
744.000000000002
1142.00000000001
1343
1147
745.99999999999
545
742.999999999995
1142.00000000001
1343
1144.00000000001
745.999999999997
545
741.999999999987
1141
1342
1145.00000000002
743.000000000005
542
742.99999999998
1142.99999999999
1342
1146.00000000002
747.000000000012
546
744.999999999933
1143.99999999994
1344
1144.00000000003
745.00000000002
545
742.999999999925
1142.99999999994
1344
1145.00000000004
747.000000000027
549
746.999999999918
1144.99999999993
1346
1147.00000000005
749.000000000035
547
744.99999999991
1144.99999999992
1347
1148.99999999998
748.999999999963
547
744.999999999982
1145.99999999999
1346
1150.99999999998
748.999999999971
547
744.999999999974
1147.99999999999
1347
1148.99999999999
748.000000000057
546
747.999999999967
1148.99999999998
1349
1149
749.000000000065
548
745.999999999959
1145.99999999997
1351
1150.00000000001
749.000000000072
547
745.999999999952
1145.99999999996
1349
1151.00000000001
747.000000000079
548
745.999999999944
1148.99999999996
1349
1151.00000000002
750.000000000087
547
744.999999999937
1146.99999999995
1347
1150.00000000003
751.000000000094
550
749.000000000008
1154.00000000002
1357
1160.00000000004
761.000000000023
560
759.000000000001
1161.00000000001
1365
1167.00000000004
764.000000000031
565
766.999999999993
1167.00000000001
1368
1170.00000000005
768.000000000038
566
764.999999999986
1165
1366
1168.00000000006
766.000000000045
565
761.999999999978
1164.99999999999
1367
1168.00000000006
769.000000000053
565
762.999999999971
1163.99999999998
1365
1165.00000000007
767.00000000006
564
762.999999999963
1163.99999999998
1365
1164.00000000008
763.000000000068
561
761.999999999956
1160.99999999997
1365
1164.00000000001
761.999999999997
558
756.000000000027
1157.99999999996
1360
1160.00000000002
761.000000000004
559
757.00000000002
1157.99999999995
1361
1160.00000000002
760.000000000012
558
755.000000000012
1155.99999999995
1357
1158.00000000003
757.000000000019
555
754.000000000005
1154.99999999994
1356
1157.00000000004
757.000000000026
558
756.999999999997
1155.99999999993
1357
1160.00000000005
756.000000000034
556
753.99999999999
1150.99999999992
1352
1155.00000000005
755.000000000041
554
753.999999999982
1153.99999999992
1356
1156.00000000006
754.99999999997
555
747.999999999975
1151.99999999999
1352
1154.99999999999
754.999999999978
554
752.999999999967
1154.99999999998
1358
1158
756.999999999985
557
755.99999999996
1157.99999999997
1360
1166
765.999999999992
564
762.999999999952
1166.99999999996
1368
1169.00000000001
768
569
769.999999999945
1170.99999999996
1374
1178.00000000002
775.000000000008
576
772.999999999937
1172.99999999995
1375
1177.00000000003
773.000000000015
571
771.99999999993
1172.99999999994
1370
1171.00000000003
768.000000000022
573
774.000000000001
1175.00000000001
1371
1168.00000000004
764.00000000003
561
758.999999999994
1157.00000000001
1355
1158.00000000005
757.000000000037
555
751.999999999986
1154
1356
1157.00000000006
755.000000000045
552
750.999999999979
1148.99999999999
1350
1151.00000000006
751.000000000052
548
748.999999999971
1148.99999999998
1351
1150.00000000007
752.00000000006
550
747.999999999964
1150.99999999998
1352
1154.00000000008
753.000000000067
550
746.999999999957
1144.99999999997
1338
1135.00000000009
727.000000000075
521
710.999999999949
1112.99999999996
1329
1153.00000000002
780.000000000003
613
861.00000000002
1318.99999999995
1565
1388.00000000002
980.000000000011
731
853.000000000013
1183.99999999995
1340
1124.00000000003
728.000000000018
534
742.000000000005
1143.99999999994
1346
1146.00000000004
744.000000000026
543
738.999999999998
1138.99999999993
1343
1145.00000000005
743.000000000033
543
740.99999999999
1142.99999999992
1347
1146.00000000005
745.000000000041
545
744.999999999983
1144.99999999992
1347
1146.00000000006
746.000000000048
544
738.999999999976
1141.99999999991
1344
1145.00000000007
744.000000000056
543
738.999999999968
1140.99999999998
1343
1143
742.999999999984
542
740.999999999961
1142.99999999997
1340
1143
741.999999999992
542
739.999999999953
1140.99999999996
1343
1145.00000000001
744.999999999999
545
743.999999999946
1144.99999999996
1345
1143.00000000002
743.000000000007
540
736.999999999938
1140.99999999995
1343
1145.00000000003
746.000000000014
541
742.999999999931
1142.99999999994
1344
1145.00000000003
745.000000000022
543
739.999999999923
1140.99999999994
1344
1145.00000000004
744.000000000029
543
738.999999999916
1138.99999999993
1339
1140.00000000005
739.000000000037
534
734.999999999987
1134
1337
1135.00000000006
730.000000000044
533
731.99999999998
1135.99999999999
1337
1139.00000000006
738.000000000052
535
733.999999999972
1134.99999999998
1338
1140.00000000007
742.000000000059
539
739.999999999965
1142.99999999998
1348
1150.00000000008
751.000000000067
551
750.999999999957
1154.99999999997
1358
1161.00000000009
763.000000000074
563
759.99999999995
1161.99999999996
1362
1163.00000000009
762.000000000081
561
759.999999999942
1160.99999999995
1363
1163.0000000001
765.00000000001
562
760.000000000014
1162.00000000003
1361
1165.00000000003
764.000000000018
563
764.000000000006
1167.00000000002
1368
1166.00000000004
765.000000000025
563
758.999999999999
1163.00000000001
1364
1164.00000000004
761.000000000033
559
756.999999999991
1158.99999999992
1361
1160.00000000005
757.00000000004
558
755.999999999984
1158.99999999992
1359
1160.00000000006
761.000000000048
557
756.999999999976
1154.99999999991
1357
1159.00000000007
758.000000000055
561
756.999999999969
1157.9999999999
1358
1158.00000000007
758.000000000063
557
755.999999999961
1157.99999999997
1360
1161
758.999999999991
557
752.999999999954
1154.99999999997
1356
1157.00000000001
759.999999999999
559
753.999999999946
1157.99999999996
1361
1161.00000000002
758.000000000006
558
756.999999999939
1156.99999999995
1358
1158.00000000003
758.000000000014
556
755.999999999931
1155.99999999994
1359
1159.00000000003
759.000000000021
555
753.999999999924
1155.99999999994
1358
1160.00000000004
762.000000000029
563
762.999999999917
1168.99999999993
1370
1172.99999999997
772.000000000036
571
771.999999999909
1174
1377
1176.99999999998
780.000000000043
577
776.999999999902
1179.99999999999
1378
1178.99999999998
777.000000000051
575
772.999999999894
1175.99999999998
1378
1177.99999999999
774.000000000058
573
773.999999999887
1177.99999999998
1383
1185
782.000000000066
578
769.999999999879
1169.99999999997
1367
1167.00000000001
761.999999999995
558
756.000000000029
1155.99999999996
1355
1154.00000000001
754.000000000002
556
753.000000000022
1154.99999999995
1356
1156.00000000002
755.00000000001
553
750.000000000014
1152.99999999995
1350
1155.00000000003
756.000000000017
552
748.000000000007
1151.99999999994
1355
1154.00000000004
754.000000000024
553
747.999999999999
1145.99999999993
1345
1139.00000000004
733.000000000032
529
721.999999999992
1114.99999999992
1316
1125.00000000013
743.000000000039
565
791.999999999984
1231.99999999992
1487
1343.00000000014
984.000000000047
801
982.999999999977
1327.99999999999
1450
1180.99999999999
739.000000000054
524
725.999999999969
1133.99999999998
1344
1145.99999999999
745.000000000062
545
743.999999999962
1145.99999999997
1348
1147
747.000000000069
544
741.999999999955
1141.99999999997
1346
1146.00000000001
743.000000000077
543
740.999999999947
1141.99999999996
1345
1145.00000000002
744.000000000084
541
740.99999999994
1140.99999999995
1344
1146.00000000002
746.000000000092
542
740.999999999932
1142.99999999994
1345
1145.00000000003
745.000000000099
543
741.999999999925
1141.99999999994
1344
1146.00000000004
745.000000000028
542
738.999999999996
1140.99999999993
1343
1142.00000000005
743.000000000035
541
738.999999999988
1138.99999999992
1342
1145.00000000005
746.000000000043
544
741.999999999981
1141.99999999991
1344
1146.00000000006
742.00000000005
540
739.999999999974
1140.99999999991
1341
1143.00000000007
740.000000000058
541
738.999999999966
1141.9999999999
1344
1143.00000000008
744.000000000065
544
741.999999999959
1143.99999999989
1345
1145.00000000008
743.000000000073
542
738.999999999951
1138.99999999988
1342
1142.00000000001
740.00000000008
538
734.999999999944
1136.00000000003
1337
1138.00000000002
738.000000000088
534
734.999999999936
1135.00000000003
1337
1137.00000000003
735.000000000095
536
733.999999999929
1138.00000000002
1338
1141.00000000004
744.000000000103
544
746.999999999921
1151.00000000001
1357
1158.00000000004
759.00000000011
558
757.999999999914
1162
1365
1167.00000000005
766.000000000117
566
761.999999999906
1165
1367
1168.00000000006
764.000000000125
566
764.999999999899
1165.99999999999
1368
1169.00000000007
769.000000000132
566
766.000000000049
1166.99999999998
1370
1170.00000000007
769.999999999982
569
766.000000000041
1166.99999999997
1369
1169.00000000008
765.99999999999
565
763.000000000034
1164.99999999997
1365
1167.00000000009
765.999999999997
564
763.000000000026
1161.99999999996
1365
1164.0000000001
763.000000000005
562
758.99999999994
1158.99999999995
1361
1162.0000000001
761.000000000012
561
758.999999999933
1159.99999999994
1362
1160.00000000011
761.00000000002
558
757.999999999925
1159.99999999994
1362
1162.00000000012
762.000000000027
558
756.999999999918
1157.99999999993
1360
1158.99999999997
759.000000000035
558
756.99999999991
1158
1359
1158.99999999998
760.000000000042
559
757.999999999903
1158.99999999999
1361
1162.99999999998
759.00000000005
561
756.999999999895
1157.99999999999
1362
1159.99999999999
758.000000000057
558
756.999999999888
1157.99999999998
1358
1160
760.000000000065
558
757.999999999881
1158.99999999997
1361
1161.00000000001
761.000000000072
558
757.999999999873
1159.99999999996
1361
1163.00000000001
763.000000000079
565
760.999999999866
1163.99999999996
1369
1173.00000000002
773.000000000087
572
771.000000000016
1172.99999999995
1377
1178.00000000003
779.000000000016
580
780.000000000008
1180.99999999994
1384
1183.00000000004
783.000000000023
579
777.000000000001
1175.99999999993
1378
1181.00000000004
776.000000000031
576
773.999999999993
1176.99999999993
1382
1184.00000000005
780.000000000038
573
768.999999999986
1166.99999999992
1364
1163.00000000006
760.000000000045
558
758.999999999978
1159.99999999991
1358
1158.00000000006
757.000000000053
556
754.999999999971
1155.9999999999
1357
1160.00000000007
759.00000000006
557
754.999999999963
1154.99999999998
1355
1157
756.000000000068
555
752.999999999956
1155.99999999997
1356
1156.00000000001
756.000000000075
555
752.999999999948
1150.99999999996
1350
1143.00000000002
735.000000000083
528
724.999999999941
1119.99999999995
1317
1123.0000000001
741.00000000009
568
796.999999999933
1236.99999999987
1484
1340.00000000011
986.000000000098
813
1007.99999999993
1378.99999999986
1513
1228.00000000012
765.000000000105
535
729.999999999918
1138.99999999985
1348
1152.00000000012
752.000000000113
550
747.999999999911
1147.99999999992
1349
1150.00000000005
751.00000000012
550
746.999999999904
1146.99999999992
1349
1150.00000000006
750.000000000128
547
744.999999999896
1146.99999999991
1347
1146.00000000007
747.000000000135
545
741.999999999889
1143.9999999999
1345
1148.00000000008
745.000000000143
545
743.999999999881
1143.99999999989
1345
1146.00000000008
746.00000000015
545
742.999999999874
1145.99999999989
1347
1149.00000000009
749.000000000158
548
745.999999999866
1146.99999999988
1350
1150.0000000001
750.000000000165
549
746.999999999938
1149.99999999987
1346
1149.00000000011
750.000000000015
548
745.99999999993
1145.99999999986
1347
1149.00000000011
749.000000000022
547
744.999999999923
1145.99999999986
1347
1149.00000000012
748.00000000003
547
745.999999999915
1147.99999999985
1348
1150.00000000013
750.000000000037
551
745.999999999908
1150.99999999984
1351
1152.00000000014
749.000000000045
548
743.9999999999
1145.99999999983
1349
1149.00000000014
750.000000000052
547
745.999999999893
1145.99999999983
1346
1146.00000000015
749.00000000006
547
744.999999999885
1147.99999999982
1350
1149.00000000008
749.000000000067
546
742.999999999878
1148.99999999997
1350
1152.00000000009
749.000000000075
547
747.99999999987
1149.99999999996
1352
1155.00000000009
755.000000000082
558
757.999999999863
1160.99999999995
1362
1165.0000000001
767.00000000009
567
764.999999999855
1167.99999999995
1370
1168.00000000011
768.000000000176
568
765.999999999848
1165.99999999994
1368
1169.00000000012
768.000000000183
567
765.99999999984
1165.99999999993
1368
1168.00000000012
767.000000000191
566
763.999999999833
1164.99999999992
1367
1168.00000000013
767.000000000198
567
764.999999999983
1166.99999999992
1368
1169.00000000014
768.000000000048
566
761.999999999976
1162.99999999991
1367
1170.00000000007
770.000000000134
569
766.999999999889
1166.99999999982
1370
1171.00000000015
771.000000000063
571
767.999999999961
1170.99999999989
1375
1177.00000000008
777.000000000149
574
773.999999999874
1174.99999999981
1381
1180.00000000017
775.000000000078
573
777.999999999946
1182.99999999988
1382
1180.0000000001
778.000000000164
576
775.999999999859
1174.99999999979
1374
1170.00000000018
767.000000000093
561
759.999999999931
1159.99999999986
1362
1158.00000000011
756.000000000179
555
751.999999999844
1150.99999999994
1352
1154.00000000004
753.000000000108
549
746.999999999916
1149.00000000001
1350
1151.00000000013
751.000000000194
550
747.99999999983
1151.99999999992
1354
1153.00000000006
753.000000000123
554
750.999999999901
1153.99999999999
1354
1156.00000000014
753.000000000209
554
748.999999999815
1150.99999999991
1349
1144.00000000007
738.000000000138
529
719.999999999886
1119.99999999998
1314
1110.00000000016
716.000000000224
535
762.9999999998
1195.99999999989
1429
1276.00000000009
925.999999999995
771
992.999999999871
1398.99999999996
1571
1304.00000000017
819.000000000081
557
727.999999999942
1129.99999999988
1341
1149.0000000001
751.00000000001
547
743.999999999856
1147.99999999995
1346
1149.00000000019
747.000000000096
545
742.999999999927
1145.99999999986
1348
1147.00000000012
747.000000000025
545
743.999999999841
1142.99999999993
1344
1146.0000000002
746.000000000111
545
743.999999999912
1145.99999999985
1347
1146.00000000013
747.00000000004
542
739.999999999826
1142.99999999992
1342
1146.00000000022
746.000000000126
546
743.999999999897
1143.99999999999
1346
1148.99999999999
748.000000000055
545
743.999999999811
1145.9999999999
1344
1146.00000000007
745.000000000141
542
740.999999999883
1142.99999999997
1347
1147
748.00000000007
544
743.999999999796
1144.99999999989
1346
1148.00000000009
749.000000000156
545
744.999999999868
1146.99999999996
1348
1149.00000000002
747.000000000085
546
743.999999999781
1143.99999999987
1347
1148.0000000001
745.000000000171
546
743.999999999853
1144.99999999994
1347
1148.00000000003
747.0000000001
545
742.999999999766
1143.99999999986
1346
1148.00000000012
748.000000000029
547
742.999999999995
1144.99999999993
1344
1146.00000000005
744.000000000115
543
738.999999999909
1139.99999999984
1343
1144.00000000013
743.000000000043
543
740.99999999998
1143.99999999991
1346
1148.00000000006
747.00000000013
545
742.999999999894
1145.99999999983
1350
1150.00000000015
750.000000000058
547
749.999999999965
1152.9999999999
1355
1156.00000000008
757.000000000145
556
752.999999999879
1156.99999999997
1359
1162.00000000016
763.000000000073
563
759.99999999995
1160.99999999988
1362
1163.00000000009
763.00000000016
558
758.999999999864
1154.99999999995
1359
1161.00000000018
761.000000000088
563
761.999999999936
1161.99999999987
1364
1163.00000000011
763.000000000175
561
759.999999999849
1158.99999999994
1361
1163.00000000019
761.000000000103
559
758.999999999921
1157.99999999985
1361
1161.00000000012
762.000000000032
558
755.999999999834
1156.99999999992
1358
1155.00000000005
753.000000000118
551
749.999999999906
1154.99999999984
1356
1156.00000000014
755.000000000047
552
750.999999999819
1151.99999999991
1352
1155.00000000007
753.000000000133
551
753.999999999891
1151.99999999982
1354
1156.00000000015
755.000000000062
553
749.999999999804
1153.9999999999
1354
1154.00000000008
755.000000000148
554
752.999999999876
1151.99999999981
1355
1153.00000000017
754.000000000077
552
749.999999999789
1152.99999999988
1353
1154.0000000001
753.000000000163
552
745.999999999861
1146.99999999995
1352
1152.00000000018
750.000000000092
550
745.999999999932
1148.99999999987
1350
1154.00000000011
756.00000000002
555
751.999999999846
1151.99999999994
1354
1154.0000000002
757.000000000107
552
750.999999999917
1150.99999999985
1352
1152.00000000013
751.000000000035
549
746.999999999831
1146.99999999992
1351
1150.00000000021
749.000000000122
550
748.999999999902
1150.99999999984
1353
1153.00000000014
752.00000000005
551
749.999999999816
1151.99999999991
1354
1156.00000000023
755.000000000136
556
753.999999999887
1154.99999999982
1354
1152.00000000016
754.000000000065
552
749.999999999801
1151.99999999989
1352
1153.00000000008
752.000000000151
549
749.00000000003
1149.99999999996
1354
1153.00000000017
752.00000000008
551
748.999999999786
1149.99999999988
1351
1152.0000000001
753.000000000166
552
752.000000000015
1153.99999999995
1356
1155.00000000019
755.000000000095
553
751.999999999771
1151.99999999986
1351
1155.00000000011
753.000000000181
554
752
1152.99999999993
1352
1155.0000000002
757.00000000011
558
757.999999999756
1161.99999999985
1363
1164.00000000013
763.000000000196
565
762.999999999985
1166.99999999992
1369
1171.00000000022
773.000000000125
573
771.999999999899
1170.99999999983
1373
1172.99999999999
772.000000000054
568
765.99999999997
1167.9999999999
1370
1173.00000000023
769.00000000014
566
759.999999999884
1163.99999999982
1365
1170
771.000000000069
570
766.999999999955
1163.99999999989
1362
1161.00000000025
760.000000000155
554
749.999999999869
1150.9999999998
1351
1151.00000000002
750.000000000083
550
749.99999999994
1147.99999999987
1352
1149.00000000026
749.00000000017
544
739.999999999854
1142.99999999979
1344
1147.00000000003
748.000000000098
544
740.999999999925
1142.99999999986
1345
1145.00000000012
745.000000000185
542
737.999999999997
1135.99999999993
1333
1126.00000000005
727.000000000113
520
709.99999999991
1108.99999999984
1319
1140.00000000013
763.0000000002
586
819.999999999982
1267.99999999991
1521
1367.00000000006
993.000000000128
801
981.999999999895
1335.99999999983
1469
1210.00000000015
767.000000000215
539
723.999999999967
1113.9999999999
1317
1124.00000000008
731.000000000143
534
733.999999999881
1136.99999999981
1340
1142.00000000016
742.000000000229
541
739.999999999952
1139.00000000004
1340
1138.00000000009
738.000000000158
536
733.999999999866
1133.9999999998
1338
1138.00000000002
738.000000000087
535
734.999999999937
1136.00000000003
1339
1138.00000000011
738.000000000173
539
734.999999999851
1134.99999999978
1338
1137.00000000004
737.000000000102
535
734.999999999922
1137.00000000001
1338
1139.00000000012
738.000000000188
538
735.999999999836
1139.99999999977
1338
1139.00000000005
738.000000000117
536
735.999999999907
1137.99999999984
1338
1141.00000000014
739.000000000203
538
732.999999999821
1134.99999999991
1335
1138.00000000006
737.999999999974
536
735.999999999892
1136.99999999983
1338
1141.00000000015
741.000000000218
539
738.999999999963
1139.9999999999
1343
1143.00000000008
740.999999999989
541
738.999999999877
1137.99999999981
1343
1143.00000000017
743.000000000233
543
737.999999999948
1140.99999999988
1342
1141.00000000009
738.000000000004
535
730.999999999862
1131.9999999998
1334
1133.00000000018
732.000000000248
531
726.999999999933
1124.99999999987
1329
1126.00000000011
724.000000000019
525
720.999999999847
1123.99999999978
1327
1126.0000000002
727.000000000105
524
723.999999999918
1126.00000000001
1328
1132.00000000012
732.000000000034
530
730.999999999832
1135.99999999977
1338
1139.00000000005
742.00000000012
542
743.999999999904
1145.99999999999
1348
1153.00000000014
754.000000000049
553
753.999999999817
1155.99999999975
1358
1159.00000000007
763.000000000135
560
760.999999999889
1162.99999999998
1364
1163.00000000015
763.000000000064
562
757.999999999802
1161.99999999974
1361
1161.00000000008
760.00000000015
559
758.999999999874
1158.99999999996
1362
1162.00000000017
761.000000000079
559
757.999999999945
1158.99999999988
1359
1161.0000000001
760.000000000008
558
756.999999999859
1157.99999999995
1361
1160.00000000003
760.000000000094
557
756.99999999993
1158.99999999986
1359
1160.00000000011
760.000000000022
559
753.999999999844
1154.99999999993
1355
1157.00000000004
755.000000000109
553
752.999999999915
1152.99999999985
1355
1157.00000000013
757.000000000037
555
752.999999999829
1155.99999999992
1357
1158.00000000021
757.000000000124
555
753.9999999999
1153.99999999983
1356
1157.00000000014
758.000000000052
552
752.999999999814
1154.9999999999
1357
1155.00000000007
754.000000000138
552
747.999999999885
1149.99999999998
1355
1155.00000000016
754.000000000067
553
750.999999999957
1151.99999999989
1355
1155.00000000009
754.000000000153
552
751.99999999987
1153.99999999996
1353
1156.00000000017
755.000000000082
553
752.999999999942
1152.99999999987
1356
1156.0000000001
755.000000000168
551
749.999999999855
1153.99999999995
1358
1160.00000000019
761.000000000097
565
762.999999999927
1164.99999999986
1364
1167.00000000012
769.000000000183
572
768.99999999984
1170.99999999993
1372
1174.0000000002
775.000000000112
573
770.999999999912
1171.99999999984
1372
1174.00000000013
772.000000000041
568
767.999999999825
1168.99999999992
1367
1168.00000000006
773.000000000127
575
774.999999999897
1171.99999999983
1367
1166.00000000015
764.000000000056
560
756.999999999811
1152.9999999999
1354
1153.00000000008
753.000000000142
549
746.999999999882
1147.99999999981
1352
1154.00000000016
752.000000000071
551
749.999999999796
1149.99999999989
1351
1152.00000000009
751.000000000157
550
746.999999999867
1146.9999999998
1351
1152.00000000018
748.000000000085
547
744.999999999781
1144.99999999987
1347
1148.0000000001
745.000000000172
539
730.999999999852
1123.99999999994
1321
1118.00000000019
712.0000000001
507
717.999999999923
1141.99999999986
1373
1203.00000000012
845.000000000187
695
943.999999999837
1385.99999999993
1602
1390.00000000021
940.000000000115
661
782.999999999908
1133.99999999984
1319
1125.00000000013
731.000000000202
537
740.999999999822
1140.99999999991
1341
1144.00000000022
745.00000000013
543
738.999999999893
1136.99999999983
1341
1141.00000000015
741.000000000217
541
737.999999999807
1139.9999999999
1342
1143.00000000024
740.000000000145
542
740.000000000036
1143.99999999997
1345
1147.00000000016
744.000000000074
544
743.999999999792
1143.99999999988
1345
1144.00000000009
744.00000000016
544
742.000000000021
1144.99999999995
1342
1144.00000000018
745.000000000089
543
741.999999999777
1140.99999999987
1343
1144.00000000011
745.000000000175
543
740.999999999849
1142.99999999994
1341
1142.00000000019
743.000000000104
543
741.999999999762
1142.99999999985
1344
1145.00000000012
743.00000000019
543
743.999999999834
1144.99999999992
1346
1145.00000000021
746.000000000119
545
739.999999999747
1140.99999999984
1343
1143.99999999998
744.000000000048
541
739.999999999819
1141.99999999991
1345
1144.00000000022
743.000000000134
541
736.99999999989
1140.99999999982
1341
1144
743.000000000063
540
737.999999999804
1138.99999999989
1342
1142.00000000024
743.000000000149
541
738.999999999875
1138.99999999981
1340
1142.00000000001
742.000000000077
540
737.999999999789
1138.99999999988
1340
1143.00000000025
741.000000000164
542
741.99999999986
1146.99999999979
1350
1152.00000000003
754.000000000092
554
753.999999999774
1156.99999999986
1360
1163.00000000011
761.000000000179
561
760.000000000003
1162.99999999994
1363
1165.00000000004
766.000000000107
565
764.999999999759
1166.99999999985
1367
1170.00000000013
768.000000000193
568
764.999999999988
1167.99999999992
1367
1169.00000000006
767.000000000122
565
762.999999999744
1164.99999999983
1367
1167.00000000014
766.000000000209
564
761.999999999973
1164.99999999991
1364
1166.00000000007
767.000000000137
563
761.999999999729
1163.99999999982
1365
1163.00000000016
764.000000000223
563
759.999999999958
1159.99999999989
1362
1164.00000000009
762.000000000152
560
755.999999999872
1157.9999999998
1362
1161.00000000001
759.000000000081
559
754.999999999943
1157.99999999988
1360
1160.0000000001
757.000000000167
557
752.999999999857
1155.99999999979
1360
1161.00000000003
757.999999999938
556
755.999999999928
1153.99999999986
1358
1158.00000000012
756.000000000182
554
752.999999999999
1154.99999999977
1357
1157.00000000004
756.000000000268
556
754.999999999913
1156.99999999985
1357
1159.00000000013
759.000000000197
557
755.999999999984
1155.99999999976
1360
1161.00000000006
759.999999999968
557
756.999999999898
1159.99999999983
1359
1161.00000000015
760.000000000212
560
754.999999999969
1156.99999999975
1360
1162.00000000007
759.999999999983
560
755.999999999883
1157.99999999982
1360
1162.00000000016
762.000000000227
562
764.999999999955
1168.00000000005
1373
1174.00000000009
773.999999999998
573
771.999999999868
1175.9999999998
1380
1178.00000000002
778.000000000242
581
779.99999999994
1178.99999999972
1378
1178.0000000001
777.000000000013
575
772.999999999853
1175.99999999979
1377
1175.00000000003
777.000000000257
578
779.999999999925
1185.00000000002
1380
1175.00000000012
772.000000000028
570
765.999999999838
1163.99999999977
1363
1163.00000000005
760.000000000272
558
753.99999999991
1154
1357
1157.00000000013
757.000000000043
556
753.999999999823
1153.99999999976
1355
1157.00000000006
754.999999999971
553
749.999999999895
1153.99999999999
1355
1157.00000000015
757.000000000058
557
752.999999999966
1152.99999999974
1355
1153.00000000008
745.000000000301
534
727.99999999988
1122.99999999997
1319
1115.00000000016
724.000000000073
545
772.999999999951
1209.99999999973
1453
1309.00000000009
961.000000000001
799
1008.99999999986
1382.99999999996
1518
1228.00000000018
759.000000000088
530
726.999999999936
1141.99999999971
1351
1153.00000000011
751.000000000016
548
746.99999999985
1147.99999999994
1350
1150.00000000019
749.00000000026
547
744.999999999921
1147.00000000001
1348
1147.00000000012
749.000000000031
546
742.999999999835
1142.99999999993
1346
1147.00000000005
747.000000000275
546
741.999999999906
1143.99999999968
1346
1147.00000000014
747.000000000046
545
745.99999999982
1144.99999999991
1348
1149.00000000007
748.00000000029
547
743.999999999891
1146.99999999998
1348
1149.00000000015
748.000000000061
545
744.999999999805
1146.9999999999
1349
1150.00000000008
751.000000000305
547
744.999999999876
1146.99999999997
1347
1150.00000000017
749.000000000076
550
748.99999999979
1148.99999999988
1350
1153.0000000001
751.000000000005
548
748.999999999862
1149.99999999995
1348
1151.00000000018
750.000000000091
549
745.999999999933
1147.99999999987
1349
1148.00000000011
750.000000000335
549
747.999999999847
1146.99999999994
1347
1150.0000000002
749.000000000106
549
747.999999999918
1147.99999999985
1348
1148.00000000013
749.000000000035
546
744.999999999832
1146.99999999992
1347
1149.00000000021
749.000000000121
547
746.999999999903
1145.99999999984
1350
1151.00000000014
751.00000000005
549
746.999999999817
1153.99999999991
1355
1159.00000000023
759.000000000136
558
758.999999999888
1158.99999999998
1361
1161.00000000016
761.000000000064
564
763.999999999802
1166.99999999989
1370
1171.00000000008
772.000000000151
569
766.999999999873
1170.99999999981
1373
1174.00000000017
770.000000000079
568
766.999999999787
1166.99999999988
1368
1170.0000000001
770.000000000166
570
766.999999999858
1167.99999999995
1369
1170.00000000019
771.000000000094
569
765.999999999772
1166.99999999986
1367
1169.00000000011
770.000000000181
568
764.999999999843
1167.99999999993
1370
1170.0000000002
769.000000000109
567
763.999999999757
1164.99999999985
1366
1165.00000000013
764.000000000038
566
762.999999999828
1164.99999999992
1366
1165.00000000021
766.000000000124
562
759.9999999999
1160.99999999983
1361
1164.00000000014
763.00000000021
561
757.999999999813
1159.9999999999
1363
1161.00000000023
763.000000000139
561
758.999999999885
1161.99999999982
1365
1164.00000000016
763.000000000068
562
758.999999999798
1160.99999999989
1361
1163.00000000024
763.000000000154
559
759.99999999987
1159.9999999998
1362
1163.00000000017
760.000000000083
560
759.999999999783
1161.99999999987
1363
1166.00000000026
767.000000000169
566
762.999999999855
1161.99999999995
1364
1164.00000000019
762.000000000098
561
760.999999999768
1161.99999999986
1365
1163.99999999996
765.000000000184
561
761.99999999984
1165.99999999977
1371
1176.0000000002
773.000000000113
576
773.999999999754
1178.99999999984
1379
1180.99999999997
782.000000000199
584
784.999999999825
1184.99999999992
1388
1189.00000000022
788.000000000128
583
780.999999999739
1181.99999999983
1382
1181.99999999999
782.000000000214
581
778.99999999981
1181.9999999999
1388
1190.00000000023
787.000000000143
576
772.999999999724
1172.99999999981
1370
1169
767.000000000071
564
763.999999999795
1160.99999999989
1363
1164.00000000025
765.000000000158
564
761.000000000024
1161.9999999998
1362
1164.00000000002
764.000000000086
563
760.99999999978
1158.99999999987
1360
1160.00000000026
760.000000000172
559
756.000000000009
1156.99999999978
1359
1161.00000000003
760.000000000101
555
749.999999999765
1144.99999999986
1339
1135.00000000028
731.000000000187
522
717.999999999994
1126.99999999977
1350
1177.00000000005
806.000000000116
645
898.99999999975
1354.99999999984
1588
1397.00000000029
971.000000000202
714
835.999999999979
1169.99999999991
1338
1132.00000000006
741.000000000131
547
750.999999999735
1152.99999999983
1353
1154.99999999999
754.000000000217
554
751.999999999964
1154.9999999999
1356
1156.00000000008
757.000000000146
557
752.99999999972
1154.99999999981
1356
1157.00000000001
756.000000000232
554
750.999999999949
1151.99999999988
1351
1154.00000000025
755.000000000161
551
751.999999999705
1153.9999999998
1353
1154.00000000002
753.000000000247
554
751.999999999934
1156.99999999987
1357
1158.00000000027
756.000000000176
554
753.99999999969
1154.99999999978
1357
1155.00000000004
752.999999999947
553
749.999999999919
1152.99999999985
1354
1155.00000000028
751.000000000191
551
749.99999999999
1150.99999999977
1353
1155.00000000005
755.000000000119
555
755.999999999904
1156.99999999984
1359
1157.0000000003
755.000000000206
554
753.999999999976
1152.99999999975
1353
1152.00000000007
754.000000000134
552
750.999999999889
1154.99999999982
1355
1158.00000000031
754.000000000221
555
752.999999999961
1153.99999999974
1356
1157.00000000008
754.000000000149
551
747.999999999874
1146.99999999981
1353
1152.00000000033
753.000000000236
550
746.999999999946
1150.00000000004
1350
1154.0000000001
755.000000000164
551
750.999999999859
1151.99999999979
1355
1158.00000000003
758.000000000251
558
756.999999999931
1161.00000000002
1362
1167.00000000011
766.000000000179
566
763.999999999844
1167.99999999978
1369
1172.00000000004
772.000000000265
570
770.999999999916
1173.00000000001
1374
1175.00000000013
775.000000000194
573
770.99999999983
1171.99999999976
1373
1176.00000000006
774.00000000028
573
768.999999999901
1168.99999999999
1371
1170.00000000014
769.000000000209
568
765.999999999815
1167.99999999975
1369
1170.00000000007
769.99999999998
568
765.999999999886
1167.99999999998
1367
1169.00000000016
766.000000000224
568
765.999999999957
1167.99999999973
1367
1169.00000000009
767.999999999995
565
762.999999999871
1163.99999999996
1364
1163.00000000017
761.000000000239
560
761.999999999942
1161.99999999972
1364
1162.0000000001
762.00000000001
560
758.999999999856
1161.99999999995
1360
1162.00000000019
762.000000000254
561
758.999999999927
1160.9999999997
1363
1161.00000000012
762.000000000025
560
758.999999999841
1158.99999999993
1360
1163.0000000002
763.000000000269
564
760.999999999912
1164
1362
1161.00000000013
763.00000000004
562
759.999999999826
1161.99999999992
1364
1165.00000000006
764.000000000284
561
758.999999999897
1158.99999999999
1363
1162.00000000015
766.000000000055
561
758.999999999811
1159.9999999999
1366
1168.00000000007
772.000000000299
572
770.999999999883
1171.99999999997
1374
1178.00000000016
780.00000000007
580
776.999999999796
1179.99999999989
1383
1183.00000000009
782.000000000314
582
777.999999999868
1175.99999999996
1378
1179.00000000018
777.000000000085
574
770.999999999781
1171.99999999987
1375
1181.0000000001
781.000000000014
575
767.999999999853
1168.99999999994
1369
1165.00000000019
762.0000000001
559
755.999999999924
1155.99999999986
1359
1161.00000000012
762.000000000029
561
757.999999999838
1157.99999999993
1359
1159.00000000021
757.000000000115
555
753.999999999909
1153.99999999984
1354
1155.00000000013
754.000000000043
551
751.999999999823
1153.99999999991
1353
1155.00000000022
755.00000000013
554
750.999999999894
1147.99999999983
1343
1139.00000000015
736.000000000058
530
719.999999999808
1115.9999999999
1326
1146.00000000024
772.000000000145
601
840.999999999879
1295.99999999997
1547
1380.00000000016
991.000000000073
768
905.999999999793
1229.99999999988
1373
1141.00000000009
730.00000000016
531
736.999999999864
1144.99999999995
1349
1150.00000000018
749.000000000088
549
745.999999999778
1143.99999999987
1348
1147.00000000011
747.000000000175
547
746.999999999849
1149.99999999994
1350
1152.00000000019
748.000000000103
548
746.999999999763
1149.99999999985
1350
1151.00000000012
749.000000000189
547
745.999999999834
1145.99999999992
1347
1147.00000000021
745.000000000118
546
743.999999999748
1142.99999999984
